#"Temp","n_e-","n_N","n_N+","n_O","n_O+","n_NO","n_N2","n_N2+","n_O2","n_O2+","n_NO+","vtkValidPointMask","arc_length","Points:0","Points:1","Points:2"
#nan,nan,nan,nan,nan,nan,nan,nan,nan,nan,nan,nan,0,0.00000e+00,2.55000e-02,3.57211e-04,0.00000e+00
3.02458e+04,2.35158e+18,1.21453e+20,2.72249e+17,5.85699e+19,4.11680e+17,2.60113e+17,1.55814e+20,1.41482e+18,2.37141e+19,1.08355e+17,1.44478e+17,1,9.76656e-04,2.55000e-02,1.33387e-03,0.00000e+00
2.98947e+04,2.26321e+18,1.23152e+20,3.97757e+17,6.16605e+19,3.29057e+17,3.81193e+17,1.66468e+20,1.19783e+18,2.55044e+19,1.43542e+17,1.95024e+17,1,1.95331e-03,2.55000e-02,2.31052e-03,0.00000e+00
2.87582e+04,2.22920e+18,1.26591e+20,3.61815e+17,6.44208e+19,3.61544e+17,5.19406e+17,1.83994e+20,1.22517e+18,2.90063e+19,1.33375e+17,1.47304e+17,1,2.92997e-03,2.55000e-02,3.28718e-03,0.00000e+00
2.70923e+04,2.19757e+18,1.31846e+20,3.29083e+17,6.84784e+19,3.86045e+17,6.86068e+17,2.19982e+20,1.22595e+18,3.86614e+19,1.33797e+17,1.22692e+17,1,3.90662e-03,2.55000e-02,4.26384e-03,0.00000e+00
2.42498e+04,2.17121e+18,1.41139e+20,3.03485e+17,7.54187e+19,3.92804e+17,9.15951e+17,2.96995e+20,1.16774e+18,6.19900e+19,1.57750e+17,1.49429e+17,1,4.88328e-03,2.55000e-02,5.24049e-03,0.00000e+00
2.13649e+04,2.22506e+18,1.48538e+20,2.99675e+17,8.23616e+19,3.75123e+17,1.13242e+18,3.87019e+20,1.21735e+18,8.62480e+19,1.81342e+17,1.51562e+17,1,5.85994e-03,2.55000e-02,6.21715e-03,0.00000e+00
1.84418e+04,2.35083e+18,1.54239e+20,3.15401e+17,8.93070e+19,3.35525e+17,1.33685e+18,4.88709e+20,1.36366e+18,1.11339e+20,2.04609e+17,1.31632e+17,1,6.83659e-03,2.55000e-02,7.19380e-03,0.00000e+00
1.64861e+04,2.40580e+18,1.59563e+20,3.17577e+17,9.52646e+19,3.88328e+17,1.57575e+18,5.88896e+20,1.36164e+18,1.34683e+20,1.98817e+17,1.39433e+17,1,7.81325e-03,2.55000e-02,8.17046e-03,0.00000e+00
1.48675e+04,2.43609e+18,1.64756e+20,3.15029e+17,1.00878e+20,4.73339e+17,1.82668e+18,6.88560e+20,1.30793e+18,1.57416e+20,1.82896e+17,1.56901e+17,1,8.78991e-03,2.55000e-02,9.14712e-03,0.00000e+00
1.39053e+04,2.25992e+18,1.63544e+20,2.97151e+17,1.02160e+20,3.93976e+17,2.02989e+18,7.77386e+20,1.26599e+18,1.78769e+20,1.43543e+17,1.59261e+17,1,9.76656e-03,2.55000e-02,1.01238e-02,0.00000e+00
1.30455e+04,2.08000e+18,1.60777e+20,2.76897e+17,1.02421e+20,3.14917e+17,2.17014e+18,8.62754e+20,1.22637e+18,1.99385e+20,1.07495e+17,1.54320e+17,1,1.07432e-02,2.55000e-02,1.11004e-02,0.00000e+00
1.25345e+04,1.92786e+18,1.51930e+20,2.48584e+17,9.87113e+19,2.73865e+17,2.01716e+18,9.33840e+20,1.19530e+18,2.16755e+20,9.26001e+16,1.17512e+17,1,1.17199e-02,2.55000e-02,1.20771e-02,0.00000e+00
1.20703e+04,1.74381e+18,1.41611e+20,2.10631e+17,9.38851e+19,2.56522e+17,1.82313e+18,9.90371e+20,1.09977e+18,2.31364e+20,8.93391e+16,8.75434e+16,1,1.26965e-02,2.55000e-02,1.30537e-02,0.00000e+00
1.16792e+04,1.50985e+18,1.28993e+20,1.57607e+17,8.73131e+19,2.76242e+17,1.56492e+18,1.02415e+21,9.03466e+17,2.41659e+20,1.04265e+17,6.82673e+16,1,1.36732e-02,2.55000e-02,1.40304e-02,0.00000e+00
1.13221e+04,1.30736e+18,1.16130e+20,1.43638e+17,7.94210e+19,2.54447e+17,1.34221e+18,1.04605e+21,7.58700e+17,2.49091e+20,9.80268e+16,5.25536e+16,1,1.46498e-02,2.55000e-02,1.50071e-02,0.00000e+00
1.09866e+04,1.12483e+18,1.03112e+20,1.54421e+17,7.06924e+19,2.06340e+17,1.14199e+18,1.06042e+21,6.46601e+17,2.54708e+20,7.83745e+16,3.90977e+16,1,1.56265e-02,2.55000e-02,1.59837e-02,0.00000e+00
1.04275e+04,8.99487e+17,9.03876e+19,1.28402e+17,6.16925e+19,1.64919e+17,9.76249e+17,1.05782e+21,4.95557e+17,2.55934e+20,6.80421e+16,4.25695e+16,1,1.66032e-02,2.55000e-02,1.69604e-02,0.00000e+00
9.82139e+03,6.72607e+17,7.77896e+19,9.63892e+16,5.27364e+19,1.26955e+17,8.14950e+17,1.05164e+21,3.42336e+17,2.56329e+20,5.87081e+16,4.82201e+16,1,1.75798e-02,2.55000e-02,1.79370e-02,0.00000e+00
9.16555e+03,5.47446e+17,6.62159e+19,8.22723e+16,4.52215e+19,1.20988e+17,6.19426e+17,1.04140e+21,2.70034e+17,2.57131e+20,3.71116e+16,3.70404e+16,1,1.85565e-02,2.55000e-02,1.89137e-02,0.00000e+00
8.48696e+03,4.35496e+17,5.58248e+19,6.85106e+16,3.80632e+19,1.08344e+17,4.58396e+17,1.03011e+21,2.11646e+17,2.57291e+20,2.01701e+16,2.68253e+16,1,1.95331e-02,2.55000e-02,1.98903e-02,0.00000e+00
7.75268e+03,3.55875e+17,4.83279e+19,5.56178e+16,3.17777e+19,7.93615e+16,3.81778e+17,1.01625e+21,1.87306e+17,2.55882e+20,1.46199e+16,1.89704e+16,1,2.05098e-02,2.55000e-02,2.08670e-02,0.00000e+00
7.00047e+03,2.82114e+17,4.11997e+19,4.05389e+16,2.63483e+19,5.94462e+16,3.25121e+17,1.00410e+21,1.60924e+17,2.54992e+20,8.45705e+15,1.27479e+16,1,2.14864e-02,2.55000e-02,2.18436e-02,0.00000e+00
6.23152e+03,2.13819e+17,3.44156e+19,2.34206e+16,2.17176e+19,4.79894e+16,2.87086e+17,9.93526e+20,1.32638e+17,2.54587e+20,1.72281e+15,8.04814e+15,1,2.24631e-02,2.55000e-02,2.28203e-02,0.00000e+00
5.57072e+03,2.00664e+17,2.88944e+19,1.99319e+16,1.82038e+19,4.88573e+16,2.15842e+17,9.87426e+20,1.02589e+17,2.53962e+20,7.77922e+15,2.15068e+16,1,2.34398e-02,2.55000e-02,2.37970e-02,0.00000e+00
4.94710e+03,2.06466e+17,2.38074e+19,2.11288e+16,1.50739e+19,5.39622e+16,1.33183e+17,9.82863e+20,7.19344e+16,2.53263e+20,1.82327e+16,4.12079e+16,1,2.44164e-02,2.55000e-02,2.47736e-02,0.00000e+00
4.35532e+03,1.45322e+17,2.01992e+19,1.45850e+16,1.23766e+19,4.95694e+16,1.02554e+17,9.74164e+20,4.88248e+16,2.51196e+20,1.33976e+16,1.89448e+16,1,2.53931e-02,2.55000e-02,2.57503e-02,0.00000e+00
3.77867e+03,8.80100e+16,1.68552e+19,8.17529e+15,9.84236e+18,4.21798e+16,7.94784e+16,9.66166e+20,2.87807e+16,2.49726e+20,8.87411e+15,0.00000e+00,1,2.63697e-02,2.55000e-02,2.67269e-02,0.00000e+00
3.26020e+03,5.49174e+16,1.44102e+19,3.29541e+15,7.92347e+18,2.36751e+16,8.08697e+16,9.61573e+20,2.03817e+16,2.50887e+20,7.56514e+15,0.00000e+00,1,2.73464e-02,2.55000e-02,2.77036e-02,0.00000e+00
2.81856e+03,3.88641e+16,1.21603e+19,4.71726e+15,6.46938e+18,1.47913e+16,7.93614e+16,9.58400e+20,1.38413e+16,2.51164e+20,5.51426e+15,0.00000e+00,1,2.83230e-02,2.55000e-02,2.86802e-02,0.00000e+00
2.48270e+03,4.62728e+16,1.01791e+19,1.48162e+16,5.65528e+18,1.91547e+16,7.38605e+16,9.57183e+20,9.86016e+15,2.50225e+20,2.44180e+15,0.00000e+00,1,2.92997e-02,2.55000e-02,2.96569e-02,0.00000e+00
2.36351e+03,3.34969e+16,6.49084e+18,1.26038e+16,3.67584e+18,1.41812e+16,4.92556e+16,9.57438e+20,5.78619e+15,2.51472e+20,9.25674e+14,0.00000e+00,1,3.02763e-02,2.55000e-02,3.06336e-02,0.00000e+00
2.36351e+03,9.61662e+15,1.86346e+18,3.61841e+15,1.05530e+18,4.07130e+15,1.41408e+16,9.58504e+20,1.66116e+15,2.53920e+20,2.65752e+14,0.00000e+00,1,3.12530e-02,2.55000e-02,3.16102e-02,0.00000e+00
2.36351e+03,0.00000e+00,0.00000e+00,0.00000e+00,0.00000e+00,0.00000e+00,0.00000e+00,9.58934e+20,0.00000e+00,2.54906e+20,0.00000e+00,0.00000e+00,1,3.22297e-02,2.55000e-02,3.25869e-02,0.00000e+00
2.36351e+03,0.00000e+00,0.00000e+00,0.00000e+00,0.00000e+00,0.00000e+00,0.00000e+00,9.58934e+20,0.00000e+00,2.54906e+20,0.00000e+00,0.00000e+00,1,3.32063e-02,2.55000e-02,3.35635e-02,0.00000e+00
2.36351e+03,0.00000e+00,0.00000e+00,0.00000e+00,0.00000e+00,0.00000e+00,0.00000e+00,9.58934e+20,0.00000e+00,2.54906e+20,0.00000e+00,0.00000e+00,1,3.41830e-02,2.55000e-02,3.45402e-02,0.00000e+00
2.36351e+03,0.00000e+00,0.00000e+00,0.00000e+00,0.00000e+00,0.00000e+00,0.00000e+00,9.58934e+20,0.00000e+00,2.54906e+20,0.00000e+00,0.00000e+00,1,3.51596e-02,2.55000e-02,3.55168e-02,0.00000e+00
2.36351e+03,0.00000e+00,0.00000e+00,0.00000e+00,0.00000e+00,0.00000e+00,0.00000e+00,9.58934e+20,0.00000e+00,2.54906e+20,0.00000e+00,0.00000e+00,1,3.61363e-02,2.55000e-02,3.64935e-02,0.00000e+00
2.36351e+03,0.00000e+00,0.00000e+00,0.00000e+00,0.00000e+00,0.00000e+00,0.00000e+00,9.58934e+20,0.00000e+00,2.54906e+20,0.00000e+00,0.00000e+00,1,3.71129e-02,2.55000e-02,3.74701e-02,0.00000e+00
2.36351e+03,0.00000e+00,0.00000e+00,0.00000e+00,0.00000e+00,0.00000e+00,0.00000e+00,9.58934e+20,0.00000e+00,2.54906e+20,0.00000e+00,0.00000e+00,1,3.80896e-02,2.55000e-02,3.84468e-02,0.00000e+00
2.36351e+03,0.00000e+00,0.00000e+00,0.00000e+00,0.00000e+00,0.00000e+00,0.00000e+00,9.58934e+20,0.00000e+00,2.54906e+20,0.00000e+00,0.00000e+00,1,3.90662e-02,2.55000e-02,3.94235e-02,0.00000e+00
2.36351e+03,0.00000e+00,0.00000e+00,0.00000e+00,0.00000e+00,0.00000e+00,0.00000e+00,9.58934e+20,0.00000e+00,2.54906e+20,0.00000e+00,0.00000e+00,1,4.00429e-02,2.55000e-02,4.04001e-02,0.00000e+00
2.36351e+03,0.00000e+00,0.00000e+00,0.00000e+00,0.00000e+00,0.00000e+00,0.00000e+00,9.58934e+20,0.00000e+00,2.54906e+20,0.00000e+00,0.00000e+00,1,4.10196e-02,2.55000e-02,4.13768e-02,0.00000e+00
2.36351e+03,0.00000e+00,0.00000e+00,0.00000e+00,0.00000e+00,0.00000e+00,0.00000e+00,9.58934e+20,0.00000e+00,2.54906e+20,0.00000e+00,0.00000e+00,1,4.19962e-02,2.55000e-02,4.23534e-02,0.00000e+00
2.36351e+03,0.00000e+00,0.00000e+00,0.00000e+00,0.00000e+00,0.00000e+00,0.00000e+00,9.58934e+20,0.00000e+00,2.54906e+20,0.00000e+00,0.00000e+00,1,4.29729e-02,2.55000e-02,4.33301e-02,0.00000e+00
2.36351e+03,0.00000e+00,0.00000e+00,0.00000e+00,0.00000e+00,0.00000e+00,0.00000e+00,9.58934e+20,0.00000e+00,2.54906e+20,0.00000e+00,0.00000e+00,1,4.39495e-02,2.55000e-02,4.43067e-02,0.00000e+00
2.36351e+03,0.00000e+00,0.00000e+00,0.00000e+00,0.00000e+00,0.00000e+00,0.00000e+00,9.58934e+20,0.00000e+00,2.54906e+20,0.00000e+00,0.00000e+00,1,4.49262e-02,2.55000e-02,4.52834e-02,0.00000e+00
2.36351e+03,0.00000e+00,0.00000e+00,0.00000e+00,0.00000e+00,0.00000e+00,0.00000e+00,9.58934e+20,0.00000e+00,2.54906e+20,0.00000e+00,0.00000e+00,1,4.59028e-02,2.55000e-02,4.62601e-02,0.00000e+00
2.36351e+03,0.00000e+00,0.00000e+00,0.00000e+00,0.00000e+00,0.00000e+00,0.00000e+00,9.58934e+20,0.00000e+00,2.54906e+20,0.00000e+00,0.00000e+00,1,4.68795e-02,2.55000e-02,4.72367e-02,0.00000e+00
2.36351e+03,0.00000e+00,0.00000e+00,0.00000e+00,0.00000e+00,0.00000e+00,0.00000e+00,9.58934e+20,0.00000e+00,2.54906e+20,0.00000e+00,0.00000e+00,1,4.78562e-02,2.55000e-02,4.82134e-02,0.00000e+00
2.36351e+03,0.00000e+00,0.00000e+00,0.00000e+00,0.00000e+00,0.00000e+00,0.00000e+00,9.58934e+20,0.00000e+00,2.54906e+20,0.00000e+00,0.00000e+00,1,4.88328e-02,2.55000e-02,4.91900e-02,0.00000e+00
2.36351e+03,0.00000e+00,0.00000e+00,0.00000e+00,0.00000e+00,0.00000e+00,0.00000e+00,9.58934e+20,0.00000e+00,2.54906e+20,0.00000e+00,0.00000e+00,1,4.98095e-02,2.55000e-02,5.01667e-02,0.00000e+00
2.36351e+03,0.00000e+00,0.00000e+00,0.00000e+00,0.00000e+00,0.00000e+00,0.00000e+00,9.58934e+20,0.00000e+00,2.54906e+20,0.00000e+00,0.00000e+00,1,5.07861e-02,2.55000e-02,5.11433e-02,0.00000e+00
2.36351e+03,0.00000e+00,0.00000e+00,0.00000e+00,0.00000e+00,0.00000e+00,0.00000e+00,9.58934e+20,0.00000e+00,2.54906e+20,0.00000e+00,0.00000e+00,1,5.17628e-02,2.55000e-02,5.21200e-02,0.00000e+00
2.36351e+03,0.00000e+00,0.00000e+00,0.00000e+00,0.00000e+00,0.00000e+00,0.00000e+00,9.58934e+20,0.00000e+00,2.54906e+20,0.00000e+00,0.00000e+00,1,5.27394e-02,2.55000e-02,5.30966e-02,0.00000e+00
2.36351e+03,0.00000e+00,0.00000e+00,0.00000e+00,0.00000e+00,0.00000e+00,0.00000e+00,9.58934e+20,0.00000e+00,2.54906e+20,0.00000e+00,0.00000e+00,1,5.37161e-02,2.55000e-02,5.40733e-02,0.00000e+00
2.36351e+03,0.00000e+00,0.00000e+00,0.00000e+00,0.00000e+00,0.00000e+00,0.00000e+00,9.58934e+20,0.00000e+00,2.54906e+20,0.00000e+00,0.00000e+00,1,5.46927e-02,2.55000e-02,5.50500e-02,0.00000e+00
2.36351e+03,0.00000e+00,0.00000e+00,0.00000e+00,0.00000e+00,0.00000e+00,0.00000e+00,9.58934e+20,0.00000e+00,2.54906e+20,0.00000e+00,0.00000e+00,1,5.56694e-02,2.55000e-02,5.60266e-02,0.00000e+00
2.36351e+03,0.00000e+00,0.00000e+00,0.00000e+00,0.00000e+00,0.00000e+00,0.00000e+00,9.58934e+20,0.00000e+00,2.54906e+20,0.00000e+00,0.00000e+00,1,5.66461e-02,2.55000e-02,5.70033e-02,0.00000e+00
2.36351e+03,0.00000e+00,0.00000e+00,0.00000e+00,0.00000e+00,0.00000e+00,0.00000e+00,9.58934e+20,0.00000e+00,2.54906e+20,0.00000e+00,0.00000e+00,1,5.76227e-02,2.55000e-02,5.79799e-02,0.00000e+00
2.36351e+03,0.00000e+00,0.00000e+00,0.00000e+00,0.00000e+00,0.00000e+00,0.00000e+00,9.58934e+20,0.00000e+00,2.54906e+20,0.00000e+00,0.00000e+00,1,5.85994e-02,2.55000e-02,5.89566e-02,0.00000e+00
2.36351e+03,0.00000e+00,0.00000e+00,0.00000e+00,0.00000e+00,0.00000e+00,0.00000e+00,9.58934e+20,0.00000e+00,2.54906e+20,0.00000e+00,0.00000e+00,1,5.95760e-02,2.55000e-02,5.99332e-02,0.00000e+00
2.36351e+03,0.00000e+00,0.00000e+00,0.00000e+00,0.00000e+00,0.00000e+00,0.00000e+00,9.58934e+20,0.00000e+00,2.54906e+20,0.00000e+00,0.00000e+00,1,6.05527e-02,2.55000e-02,6.09099e-02,0.00000e+00
2.36351e+03,0.00000e+00,0.00000e+00,0.00000e+00,0.00000e+00,0.00000e+00,0.00000e+00,9.58934e+20,0.00000e+00,2.54906e+20,0.00000e+00,0.00000e+00,1,6.15293e-02,2.55000e-02,6.18866e-02,0.00000e+00
2.36351e+03,0.00000e+00,0.00000e+00,0.00000e+00,0.00000e+00,0.00000e+00,0.00000e+00,9.58934e+20,0.00000e+00,2.54906e+20,0.00000e+00,0.00000e+00,1,6.25060e-02,2.55000e-02,6.28632e-02,0.00000e+00
2.36351e+03,0.00000e+00,0.00000e+00,0.00000e+00,0.00000e+00,0.00000e+00,0.00000e+00,9.58934e+20,0.00000e+00,2.54906e+20,0.00000e+00,0.00000e+00,1,6.34827e-02,2.55000e-02,6.38399e-02,0.00000e+00
2.36351e+03,0.00000e+00,0.00000e+00,0.00000e+00,0.00000e+00,0.00000e+00,0.00000e+00,9.58934e+20,0.00000e+00,2.54906e+20,0.00000e+00,0.00000e+00,1,6.44593e-02,2.55000e-02,6.48165e-02,0.00000e+00
2.36351e+03,0.00000e+00,0.00000e+00,0.00000e+00,0.00000e+00,0.00000e+00,0.00000e+00,9.58934e+20,0.00000e+00,2.54906e+20,0.00000e+00,0.00000e+00,1,6.54360e-02,2.55000e-02,6.57932e-02,0.00000e+00
2.36351e+03,0.00000e+00,0.00000e+00,0.00000e+00,0.00000e+00,0.00000e+00,0.00000e+00,9.58934e+20,0.00000e+00,2.54906e+20,0.00000e+00,0.00000e+00,1,6.64126e-02,2.55000e-02,6.67698e-02,0.00000e+00
2.36351e+03,0.00000e+00,0.00000e+00,0.00000e+00,0.00000e+00,0.00000e+00,0.00000e+00,9.58934e+20,0.00000e+00,2.54906e+20,0.00000e+00,0.00000e+00,1,6.73893e-02,2.55000e-02,6.77465e-02,0.00000e+00
2.36351e+03,0.00000e+00,0.00000e+00,0.00000e+00,0.00000e+00,0.00000e+00,0.00000e+00,9.58934e+20,0.00000e+00,2.54906e+20,0.00000e+00,0.00000e+00,1,6.83659e-02,2.55000e-02,6.87231e-02,0.00000e+00
2.36351e+03,0.00000e+00,0.00000e+00,0.00000e+00,0.00000e+00,0.00000e+00,0.00000e+00,9.58934e+20,0.00000e+00,2.54906e+20,0.00000e+00,0.00000e+00,1,6.93426e-02,2.55000e-02,6.96998e-02,0.00000e+00
2.36351e+03,0.00000e+00,0.00000e+00,0.00000e+00,0.00000e+00,0.00000e+00,0.00000e+00,9.58934e+20,0.00000e+00,2.54906e+20,0.00000e+00,0.00000e+00,1,7.03193e-02,2.55000e-02,7.06765e-02,0.00000e+00
2.36351e+03,0.00000e+00,0.00000e+00,0.00000e+00,0.00000e+00,0.00000e+00,0.00000e+00,9.58934e+20,0.00000e+00,2.54906e+20,0.00000e+00,0.00000e+00,1,7.12959e-02,2.55000e-02,7.16531e-02,0.00000e+00
2.36351e+03,0.00000e+00,0.00000e+00,0.00000e+00,0.00000e+00,0.00000e+00,0.00000e+00,9.58934e+20,0.00000e+00,2.54906e+20,0.00000e+00,0.00000e+00,1,7.22726e-02,2.55000e-02,7.26298e-02,0.00000e+00
2.36351e+03,0.00000e+00,0.00000e+00,0.00000e+00,0.00000e+00,0.00000e+00,0.00000e+00,9.58934e+20,0.00000e+00,2.54906e+20,0.00000e+00,0.00000e+00,1,7.32492e-02,2.55000e-02,7.36064e-02,0.00000e+00
2.36351e+03,0.00000e+00,0.00000e+00,0.00000e+00,0.00000e+00,0.00000e+00,0.00000e+00,9.58934e+20,0.00000e+00,2.54906e+20,0.00000e+00,0.00000e+00,1,7.42259e-02,2.55000e-02,7.45831e-02,0.00000e+00
2.36351e+03,0.00000e+00,0.00000e+00,0.00000e+00,0.00000e+00,0.00000e+00,0.00000e+00,9.58934e+20,0.00000e+00,2.54906e+20,0.00000e+00,0.00000e+00,1,7.52025e-02,2.55000e-02,7.55597e-02,0.00000e+00
2.36351e+03,0.00000e+00,0.00000e+00,0.00000e+00,0.00000e+00,0.00000e+00,0.00000e+00,9.58934e+20,0.00000e+00,2.54906e+20,0.00000e+00,0.00000e+00,1,7.61792e-02,2.55000e-02,7.65364e-02,0.00000e+00
2.36351e+03,0.00000e+00,0.00000e+00,0.00000e+00,0.00000e+00,0.00000e+00,0.00000e+00,9.58934e+20,0.00000e+00,2.54906e+20,0.00000e+00,0.00000e+00,1,7.71558e-02,2.55000e-02,7.75131e-02,0.00000e+00
2.36351e+03,0.00000e+00,0.00000e+00,0.00000e+00,0.00000e+00,0.00000e+00,0.00000e+00,9.58934e+20,0.00000e+00,2.54906e+20,0.00000e+00,0.00000e+00,1,7.81325e-02,2.55000e-02,7.84897e-02,0.00000e+00
2.36351e+03,0.00000e+00,0.00000e+00,0.00000e+00,0.00000e+00,0.00000e+00,0.00000e+00,9.58934e+20,0.00000e+00,2.54906e+20,0.00000e+00,0.00000e+00,1,7.91092e-02,2.55000e-02,7.94664e-02,0.00000e+00
2.36351e+03,0.00000e+00,0.00000e+00,0.00000e+00,0.00000e+00,0.00000e+00,0.00000e+00,9.58934e+20,0.00000e+00,2.54906e+20,0.00000e+00,0.00000e+00,1,8.00858e-02,2.55000e-02,8.04430e-02,0.00000e+00
2.36351e+03,0.00000e+00,0.00000e+00,0.00000e+00,0.00000e+00,0.00000e+00,0.00000e+00,9.58934e+20,0.00000e+00,2.54906e+20,0.00000e+00,0.00000e+00,1,8.10625e-02,2.55000e-02,8.14197e-02,0.00000e+00
2.36351e+03,0.00000e+00,0.00000e+00,0.00000e+00,0.00000e+00,0.00000e+00,0.00000e+00,9.58934e+20,0.00000e+00,2.54906e+20,0.00000e+00,0.00000e+00,1,8.20391e-02,2.55000e-02,8.23963e-02,0.00000e+00
2.36351e+03,0.00000e+00,0.00000e+00,0.00000e+00,0.00000e+00,0.00000e+00,0.00000e+00,9.58934e+20,0.00000e+00,2.54906e+20,0.00000e+00,0.00000e+00,1,8.30158e-02,2.55000e-02,8.33730e-02,0.00000e+00
2.36351e+03,0.00000e+00,0.00000e+00,0.00000e+00,0.00000e+00,0.00000e+00,0.00000e+00,9.58934e+20,0.00000e+00,2.54906e+20,0.00000e+00,0.00000e+00,1,8.39924e-02,2.55000e-02,8.43496e-02,0.00000e+00
2.36351e+03,0.00000e+00,0.00000e+00,0.00000e+00,0.00000e+00,0.00000e+00,0.00000e+00,9.58934e+20,0.00000e+00,2.54906e+20,0.00000e+00,0.00000e+00,1,8.49691e-02,2.55000e-02,8.53263e-02,0.00000e+00
2.36351e+03,0.00000e+00,0.00000e+00,0.00000e+00,0.00000e+00,0.00000e+00,0.00000e+00,9.58934e+20,0.00000e+00,2.54906e+20,0.00000e+00,0.00000e+00,1,8.59457e-02,2.55000e-02,8.63030e-02,0.00000e+00
2.36351e+03,0.00000e+00,0.00000e+00,0.00000e+00,0.00000e+00,0.00000e+00,0.00000e+00,9.58934e+20,0.00000e+00,2.54906e+20,0.00000e+00,0.00000e+00,1,8.69224e-02,2.55000e-02,8.72796e-02,0.00000e+00
2.36351e+03,0.00000e+00,0.00000e+00,0.00000e+00,0.00000e+00,0.00000e+00,0.00000e+00,9.58934e+20,0.00000e+00,2.54906e+20,0.00000e+00,0.00000e+00,1,8.78991e-02,2.55000e-02,8.82563e-02,0.00000e+00
2.36351e+03,0.00000e+00,0.00000e+00,0.00000e+00,0.00000e+00,0.00000e+00,0.00000e+00,9.58934e+20,0.00000e+00,2.54906e+20,0.00000e+00,0.00000e+00,1,8.88757e-02,2.55000e-02,8.92329e-02,0.00000e+00
nan,nan,nan,nan,nan,nan,nan,nan,nan,nan,nan,nan,0,8.98524e-02,2.55000e-02,9.02096e-02,0.00000e+00
nan,nan,nan,nan,nan,nan,nan,nan,nan,nan,nan,nan,0,9.08290e-02,2.55000e-02,9.11862e-02,0.00000e+00
nan,nan,nan,nan,nan,nan,nan,nan,nan,nan,nan,nan,0,9.18057e-02,2.55000e-02,9.21629e-02,0.00000e+00
nan,nan,nan,nan,nan,nan,nan,nan,nan,nan,nan,nan,0,9.27823e-02,2.55000e-02,9.31396e-02,0.00000e+00
nan,nan,nan,nan,nan,nan,nan,nan,nan,nan,nan,nan,0,9.37590e-02,2.55000e-02,9.41162e-02,0.00000e+00
nan,nan,nan,nan,nan,nan,nan,nan,nan,nan,nan,nan,0,9.47357e-02,2.55000e-02,9.50929e-02,0.00000e+00
nan,nan,nan,nan,nan,nan,nan,nan,nan,nan,nan,nan,0,9.57123e-02,2.55000e-02,9.60695e-02,0.00000e+00
nan,nan,nan,nan,nan,nan,nan,nan,nan,nan,nan,nan,0,9.66890e-02,2.55000e-02,9.70462e-02,0.00000e+00
nan,nan,nan,nan,nan,nan,nan,nan,nan,nan,nan,nan,0,9.76656e-02,2.55000e-02,9.80228e-02,0.00000e+00
